Seconds since J2000,RA ECLIPJ2000 [rad],DEC ECLIPJ2000 [rad],O-C RA ECLIPJ2000 [rad],O-C DEC ECLIPJ2000 [rad]
-145535889.217463,-1.8888922178948637,0.014275615759752799,6.944160069188854e-07,-1.818325954231273e-06
-145535616.815521,-1.8888947376228287,0.014277427098771396,1.527880855389796e-06,-3.825453699854431e-07
-145535542.813951,-1.8888967202773488,0.014275964709087176,5.287281745758321e-07,-1.9478399286045056e-06
-145535463.818403,-1.8888977389538144,0.014276525962025766,5.943556287135721e-07,-1.4968181539891379e-06
-145535255.819048,-1.8889006180469354,0.014276745424583345,7.41197323073095e-07,-1.5693471571189e-06
-145535003.81619,-1.8889045366872081,0.014276819361684356,8.228012891020597e-07,-1.8521641736886363e-06
-145534910.616495,-1.888906487646354,0.014277098386186559,4.4460650561184423e-07,-1.7057948063625011e-06
-145534840.718906,-1.8889074113141482,0.014277259069491849,7.336878089514443e-07,-1.6448222693813547e-06
-145534746.413282,-1.8889088953929036,0.014277369641037957,9.310700590514642e-07,-1.6690565444454908e-06
-145534667.815197,-1.8889106899599768,0.014277857109552915,5.776728120299168e-07,-1.2941616383665283e-06
-145534604.613608,-1.8889117362946484,0.01427760989403238,7.164782769297773e-07,-1.6320308192582789e-06
-145534479.41139,-1.8889140391879602,0.014277914358413572,8.306551475545376e-07,-1.5074574510401395e-06
-145534332.617779,-1.8889171073439261,0.014278066242765878,7.139856537108358e-07,-1.5669178113544152e-06
-145534268.716335,-1.888918506444311,0.014278205387067845,6.394442648716137e-07,-1.5198908475885786e-06
-145534200.512159,-1.8889197402762457,0.014278487154780242,8.4598927552193e-07,-1.3365041960453766e-06
-145534138.114107,-1.8889210127405396,0.014279460824484088,9.153932907235429e-07,-4.528854251322628e-07
-145534061.010723,-1.8889227585694133,0.014278928023371591,8.595193496940823e-07,-1.0970044300884912e-06
-145533985.013308,-1.8889246366848218,0.01427861611626334,6.81599068297345e-07,-1.5186646422776784e-06
-145533841.615212,-1.888928074235687,0.014279226954978172,5.45437145005323e-07,-1.1149424784667739e-06
-145533755.318879,-1.8889300577822072,0.014279240824132067,6.074950102963328e-07,-1.2256916402386686e-06
-145533693.612032,-1.8889315226266385,0.014279462089029053,6.325023631514881e-07,-1.0935078279834115e-06
-145533634.514424,-1.8889331286533249,0.014279514134028864,4.7454107998667894e-07,-1.1267454986529923e-06
-145533570.414269,-1.8889349684003378,0.014279627126308352,2.2890261663910394e-07,-1.1062104301635955e-06
-145533494.010741,-1.888937698706418,0.014279401865642246,-5.694205464923385e-07,-1.4416000335727708e-06
-145533410.418718,-1.8889382703588826,0.014279739146786583,1.0124260756416703e-06,-1.2246971092949588e-06
-145533359.511852,-1.8889400176110342,0.014279824980575949,5.969814516060268e-07,-1.2121058135545343e-06
-145533298.617151,-1.8889416303016124,0.014280027774036353,5.976210921687652e-07,-1.0968497706868863e-06
-145533214.117952,-1.8889439756695967,0.014280089711447196,5.274405123767423e-07,-1.1562305553339258e-06
-145533069.613928,-1.8889478796125112,0.014280409184929134,6.125601228479383e-07,-1.0437568293986815e-06
-145532961.216487,-1.8889508611183963,0.014280222442924068,7.046695631451882e-07,-1.3853280123876655e-06
-145532657.710589,-1.88896028900971,0.014280966295998888,2.525554576582323e-07,-1.072494406572505e-06
-145532591.71827,-1.8889616039922419,0.014280684304129484,9.61171067848099e-07,-1.4476435838441104e-06
-145532464.615197,-1.8889660628933527,0.01428076112650356,4.7199030617228743e-07,-1.5496027886419128e-06
-145532388.514102,-1.888967800318285,0.014280926049130746,1.1567895192854394e-06,-1.4912920763086174e-06
-145532317.614265,-1.8889701766571505,0.014280609546595036,1.0676655139985058e-06,-1.9068114669555658e-06
-145532250.516017,-1.8889727140099644,0.014281233591231495,7.219743813902113e-07,-1.3761879295755286e-06
-145532102.314085,-1.8889775432708256,0.014281269749587704,8.265982678334893e-07,-1.5453267954781968e-06
-145531940.815222,-1.8889831931157377,0.014282120820280589,6.987042060480064e-07,-9.162175007432216e-07
-145531840.513453,-1.8889864140781396,0.01428173346118469,9.832454397340484e-07,-1.4404412018460128e-06
-145531762.615223,-1.8889890487923255,0.014281711333440049,1.111057585045927e-06,-1.568311607337558e-06
-145531706.014565,-1.888991014138137,0.014281590142635211,1.1748386050669524e-06,-1.7660212334544984e-06
-145531622.811395,-1.8889941310918423,0.014281951580532758,1.0740503222361752e-06,-1.5165717135896817e-06
-145531330.21777,-1.8890055818423441,0.014281125611770307,5.432849112807503e-07,-2.7313967974063047e-06
-145531238.815208,-1.889008976857533,0.014281775343511728,6.588462779788529e-07,-2.2014555452910117e-06
-145531172.010742,-1.8890117467099192,0.014282552426171243,4.845016099430666e-07,-1.5113901935797508e-06
-145530877.913766,-1.8890228680382812,0.014282931680497149,1.0853720584513837e-06,-1.5095568270482446e-06
-145530796.213947,-1.8890261945174138,0.014283225197371264,1.1001926945031215e-06,-1.3191703056355392e-06
-145530716.311222,-1.8890293003658485,0.014283098886324355,1.2975327130515524e-06,-1.54558709912489e-06
-145530485.813297,-1.8890393850607374,0.014282935918330719,9.361195769663766e-07,-1.99298331284882e-06
-138887751.812732,-1.9963383933238381,0.01033026580760391,4.679893697012716e-07,-1.6605433217700694e-08
-138887629.815929,-1.9963398314736223,0.010330151777059286,1.0230439055902707e-06,1.5816344608836352e-07
-138887171.818171,-1.9963467909185098,0.01032909837663941,9.359158668065248e-07,2.080924056280936e-07
-138886550.8182,-1.996353465755849,0.010327495384922577,1.990785986727417e-06,1.4443156622599707e-07
-138885954.813708,-1.9963597715293089,0.010325954716353973,1.3203096835834316e-06,1.2035342730580545e-07
-138885851.816279,-1.99636071873687,0.010325451982430147,1.1656454033115438e-06,-1.170195031187371e-07
-138885653.81337,-1.996361820358386,0.010325195036030093,1.435476704836347e-06,1.385208654048481e-07
-138885379.813085,-1.9963626878417928,0.01032440020453597,2.1332815096641866e-06,5.748851285465595e-08
-138885266.81913,-1.9963632795029858,0.010324151922471523,2.0739263104641026e-06,1.0495266303603423e-07
-138885147.820419,-1.9963639429554358,0.010323685980542502,1.8992333439271647e-06,-4.87472175455389e-08
-138885012.820427,-1.9963643396719488,0.01032335228954695,1.9674768432231815e-06,-2.7328749041544143e-08
-138884879.81628,-1.9963646165728381,0.010323199513016816,2.0553065964712403e-06,1.7057553210360343e-07
-138884744.816248,-1.996365030572744,0.010322691365832538,1.9164771520863155e-06,1.910436032807883e-08
-138884518.819807,-1.9963653948528108,0.010322292050476262,1.7979030411119368e-06,2.1825427539215458e-07
-138884276.813395,-1.9963654329972167,0.010321536715848637,1.7236019518307444e-06,1.05211213699552e-07
-138884133.812763,-1.9963649100747274,0.010321278810556122,2.0793684076814145e-06,2.2729355232328774e-07
-138883897.819796,-1.9963644554877102,0.010320551230916401,2.0209558833084174e-06,1.271632237773157e-07
-138883767.813702,-1.996364101148033,0.010320114551728871,1.966480944970428e-06,3.616009713360013e-08
-138883622.817224,-1.9963635187208473,0.01031991058980696,1.987211996512528e-06,2.1760678602621153e-07
-138883489.813077,-1.9963632357928243,0.010319331664432108,1.656906388980417e-06,-8.00876298612252e-09
-138883357.819788,-1.9963623178671552,0.010319145649504,1.8736519202811053e-06,1.5628974671909324e-07
-138883225.817849,-1.9963619871728964,0.01031911300203576,1.4109817709773154e-06,4.73571614209925e-07
-138882051.814681,-1.9963528055084336,0.010315727140740338,-4.815938328128766e-07,1.666201174584797e-07
-138881866.815001,-1.9963481106283214,0.010315059574281764,1.8181681731288535e-06,-2.3828309587622942e-08
-138881712.815635,-1.9963458077565184,0.01031443295745122,1.994740105759618e-06,-2.554916253491579e-07
-138881276.815304,-1.9963409875528129,0.010313799044867265,1.498590838089342e-07,2.1653016099923428e-07
-138880755.81467,-1.996329906916139,0.010312090594572403,2.0406028218289407e-06,-1.97795585228297e-07
-138880648.8169,-1.9963279421570823,0.010311848383170065,1.956490462751148e-06,-1.7839393856404484e-07
-138880538.821077,-1.9963259579230854,0.010311807116531103,1.7780342249640313e-06,4.769194437287405e-08
-138880421.818171,-1.996323380815703,0.010311968539137151,1.9924322882669543e-06,4.916720276141456e-07
-138880285.815932,-1.9963228555425092,0.010314993263665867,-3.0855785548844494e-07,3.842392467262243e-06
-105971702.819815,-1.429597191764436,-0.0029432410098081847,1.4824331100449228e-06,-5.154380097634192e-07
-105971626.81371,-1.4295979876329905,-0.0029411596614387584,2.318753506314053e-06,1.5232397488403743e-06
-105971481.817232,-1.4296009145374182,-0.002941225172001055,2.5910942516027546e-06,1.3780788879649668e-06
-105971415.116447,-1.4296036413336188,-0.0029430514933760847,1.3734834065637358e-06,-4.840984334990132e-07
-105971335.714826,-1.429607925329889,-0.0029426678793331375,-1.0833422698919293e-06,-1.4251315346618457e-07
-105971077.819464,-1.4296141381591005,-0.0029444060942576036,-1.1339369332397098e-06,-2.0122240580369016e-06
-105970983.816272,-1.4296183288877147,-0.0029383346185330424,-2.9927889686476306e-06,4.0132687774722606e-06
-105970747.814655,-1.42962225190226,-0.0029411297572105493,-8.623880149993823e-07,1.1074010062934667e-06
-105970677.813385,-1.4296251445161574,-0.0029416194808163697,-1.9052677282527242e-06,5.861536923846764e-07
-105888423.821113,-1.4301689437381877,-0.0029715315951183937,1.1555232872773047e-06,2.8262368812251824e-06
-105888171.818255,-1.4301732277032146,-0.0029715885902064456,-1.7209207212598443e-06,2.570766961048406e-06
-105888102.819192,-1.4301707401828818,-0.0029712673472348907,1.2152394461839577e-06,2.838223756201734e-06
-105887118.818253,-1.4301811654701573,-0.002969479962820269,1.4406455473015e-07,3.889957981169628e-06
-105887033.81791,-1.4301826069133543,-0.002971955356866075,-2.3108824964701569e-07,1.3541696675545972e-06
-105886864.81951,-1.4301817305560696,-0.002972062103102083,2.8864343111223434e-06,1.129036596544692e-06
-105886752.819192,-1.4301847320245715,-0.002971706580472977,1.4588227783551844e-06,1.4073815809310594e-06
-105886683.82017,-1.430186487017273,-0.002970101392605003,7.084598643292139e-07,2.9655474141948752e-06
-105886613.81886,-1.430186548265196,-0.002970668375719186,1.6936681395129938e-06,2.3512763016059895e-06
-105886542.815343,-1.4301907545205406,-0.0029718666922800016,-1.423187445670493e-06,1.105431348679374e-06
-105886473.81632,-1.4301887987498747,-0.0029703915757476333,1.6181467075160327e-06,2.5347897024681314e-06
-105886389.714544,-1.4301902172630048,-0.002971061041898517,1.5585990609245925e-06,1.8101308440691792e-06
-105886314.719336,-1.4301917518885225,-0.0029697912905034163,1.2688653425740881e-06,3.0312138205412613e-06
-105886264.616007,-1.4301927004064634,-0.0029702110391844,1.1693740815665876e-06,2.579242795875368e-06
-105885875.815983,-1.4301963338973769,-0.0029684808939457203,4.592892824506478e-06,4.067601708927435e-06
-105885803.818868,-1.430202488946695,-0.002969720477111036,-1.6492781096388853e-07,2.7849070148204882e-06
-105885643.814707,-1.4302029580378117,-0.002968636008202955,2.5713292255424847e-06,3.7755009317875024e-06
-105885583.015037,-1.4302092961850643,-0.0029683777132278343,-2.5127719662787484e-06,3.998836771321786e-06
-105884970.819202,-1.4302229292122437,-0.0029691857989207534,-2.4296022607117607e-06,2.8616655740002633e-06
-111396352.11609,-1.3178717107073532,-0.0005952960421955942,-3.2381942514092543e-06,3.01354708252214e-07
-111396247.312917,-1.3178758176790082,-0.0005952668271178175,-4.420970323160134e-06,2.5162387422110466e-07
-111396188.016598,-1.3178768628736646,-0.0005881062346491333,-3.781954797332787e-06,7.368403679852242e-06
-111396148.013395,-1.3178769479251649,-0.000594798426515461,-2.718653254740744e-06,6.470063117297803e-07
-111396097.313851,-1.3178786921802326,-0.000594701803399089,-2.993465717304744e-06,7.070249655296082e-07
-111396031.718995,-1.3178804548214444,-0.0005947124221861476,-2.8316830473773535e-06,6.497327497934861e-07
-111395956.015322,-1.3178828569328225,-0.0005947697141974194,-2.9802044529958494e-06,5.395435685441553e-07
-111395895.11193,-1.317884780267989,-0.0005947063302037017,-3.0652094460403845e-06,5.611323101137626e-07
-111395805.618833,-1.3178890307483195,-0.0005953155167775587,-4.573484627456992e-06,-1.082274184244442e-07
-111395694.914505,-1.3178942380447576,-0.0005968435095938872,-6.321376510465271e-06,-1.7085882094767905e-06
-111395623.012421,-1.3178938764770154,-0.0005948175050057684,-3.673170247964208e-06,2.716517170260873e-07
-111395509.517401,-1.3179000853826461,-0.0005976149524221953,-6.209110199772994e-06,-2.596026469489144e-06
-111395421.216573,-1.3179019967848131,-0.0005982502295553083,-5.20917009305677e-06,-3.2842267178257107e-06
-111394969.716105,-1.3179142873092986,-0.0005932177800607991,-1.8833289774367046e-06,1.5016641520553984e-06
-111394851.51228,-1.3179238689718498,-0.0005963106099537944,-7.176362684768733e-06,-1.648922047121958e-06
-111138085.115214,-1.3242277357631962,-0.0007182963078637465,-1.0521672653140968e-06,3.3983497021506433e-07
-111137727.712968,-1.3242383637313726,-0.0007180235219190113,-1.0687148834787052e-06,3.6713043456194656e-07
-111137572.313932,-1.3242452874923742,-0.0007196502705870774,-3.1354747711542785e-06,-1.3592341530174355e-06
-111137374.915847,-1.3242513183388644,-0.0007174928237931873,-2.7850607442481135e-06,6.780855297253878e-07
-111137290.71908,-1.3242544203025473,-0.0007174228921677747,-3.0934101769020117e-06,6.989993693077255e-07
-111137232.61507,-1.3242563653052095,-0.0007175738970436298,-3.0855786763428483e-06,5.14951677413702e-07
-111137168.117452,-1.3242588120381527,-0.0007174309648609195,-3.3407602113566526e-06,6.21960806259118e-07
-111137108.613771,-1.3242617579520355,-0.0007165239088287071,-4.242611183480349e-06,1.496584986600746e-06
-111137051.71937,-1.3242627039611767,-0.0007169863848556546,-3.2143027601794216e-06,1.0037403204943241e-06
-111136957.517467,-1.3242665703291898,-0.0007161091593445159,-3.7690782144217394e-06,1.8320712738970546e-06
-111136890.013146,-1.32426844751689,-0.0007172126552101683,-3.2405752155018064e-06,6.946100785847412e-07
-111136817.013784,-1.324272251428225,-0.0007161914050724512,-4.412389779107073e-06,1.680145134076846e-06
-111136729.412811,-1.3242780568678212,-0.0007153454278547977,-7.017427441580182e-06,2.4846659467547437e-06
-111136420.515552,-1.324289373079622,-0.0007169237892551936,-6.686595712901422e-06,7.725074294176156e-07
-111136334.219219,-1.3242874885224272,-0.000716069206101049,-1.4481591459336585e-06,1.593209246048802e-06
-111136074.613144,-1.324297113632415,-0.0007161992242455132,-7.230232981214613e-07,1.3706397379006701e-06
57264158.982459,1.842512250778061,-0.0024058817599457417,6.35118039049587e-07,3.76867306669474e-07
57264248.682958,1.8425138798979277,-0.0024060955394280804,8.047938746535976e-07,2.7073942662986586e-07
57264377.885516,1.8425159384393879,-0.002406218401730933,8.34007866323816e-07,3.0267050455702604e-07
57264550.685504,1.8425183297730165,-0.0024065837100978246,6.463897053166079e-07,1.4378791191732576e-07
57264714.085181,1.8425207505612913,-0.002406794776000053,7.716836269988647e-07,1.271487883656823e-07
57264775.679737,1.842521506745781,-0.0024068362134166514,6.988639262850427e-07,1.5877812041889539e-07
57264836.479448,1.8425223192452898,-0.002406605101451541,7.126131171819594e-07,4.6188247113760836e-07
57264897.184087,1.8425231312554067,-0.0024068938496101884,7.465449023413839e-07,2.448766061517553e-07
57264957.880077,1.8425237464399378,-0.0024070034134342074,6.032033905700729e-07,2.0690032713575196e-07
57265017.884861,1.8425246196745118,-0.002407120073451385,7.456947681561132e-07,1.608635780804904e-07
57265078.684571,1.8425252275815767,-0.0024071670326992907,6.326275643342427e-07,1.8530498511895935e-07
57265139.380561,1.842526021824019,-0.002407186473760721,7.266863861765671e-07,2.36976849458774e-07
57265200.983767,1.84252667380767,-0.0024069720676227783,6.880379095353106e-07,5.233820292412442e-07
57265284.783112,1.8425276049737775,-0.0024072376891944823,7.121610829941005e-07,3.5540218290899817e-07
57265489.084558,1.8425295569928684,-0.0024073758516931745,6.099022853423008e-07,4.5373555243892125e-07
57265590.785998,1.842530675855372,-0.00240756742813231,7.894196427660205e-07,3.7900248361574795e-07
57265687.882313,1.8425313847458502,-0.0024075513983013983,6.532765972622201e-07,5.059959357080722e-07
57265748.880695,1.8425321075033207,-0.0024077128810766875,8.710654151311559e-07,4.1391614644375324e-07
57265809.982798,1.842532585663531,-0.0024079247617869214,8.634582957522952e-07,2.713103699992711e-07
57265869.883901,1.8425329250184734,-0.0024079907365233146,7.460976774176231e-07,2.730031047879812e-07
57265931.184715,1.8425334981827277,-0.0024084375644197638,8.718801232099338e-07,-1.0483502753746987e-07
57265991.984385,1.8425338965611668,-0.0024083707531932304,8.465355973985567e-07,3.013640025679651e-08
57266052.08424,1.8425344785374305,-0.002408427557770043,1.029253041906486e-06,4.044084955800997e-08
57266255.884543,1.8425354209801017,-0.0024083243423239495,7.628838583073616e-07,3.6916313840649334e-07
57266500.586616,1.8425366581823737,-0.0024091844929700758,8.449158577228388e-07,-2.2470890188820355e-07
57266560.58279,1.8425368841764147,-0.00240903229632299,8.370347948094548e-07,-8.019298938007763e-09
57266620.682645,1.8425371014150753,-0.002409270604325144,8.394734420935634e-07,-1.8204906036172266e-07
57266680.678779,1.8425373284335373,-0.0024090689925891713,8.71502872312746e-07,8.3398057480321e-08
57266740.778634,1.8425373033133856,-0.002408794684140553,6.705236321735697e-07,4.2131343648815073e-07
57266800.783418,1.8425376928246315,-0.0024091174138129805,9.038833155283754e-07,1.6174551011613816e-07
57266861.583129,1.8425377600549606,-0.002408938770537691,8.326848577322465e-07,4.0402972925363684e-07
57266922.58151,1.8425380818321182,-0.0024094358092888635,1.0355885791124564e-06,-2.9528256607642273e-08
57267044.284572,1.8425382968049528,-0.002410528030380324,1.0732120678813573e-06,-9.962209817000224e-07
57267112.981202,1.8425376756383052,-0.0024095518495497953,3.8709235483658233e-07,5.01369243127367e-08
57267173.685841,1.8425377717339417,-0.00240950504842294,4.468776519939155e-07,1.5853398974011515e-07
57267234.485511,1.8425379095043974,-0.0024099331839024453,5.680909094252229e-07,-2.0830776100615525e-07
57267295.380212,1.8425378213409611,-0.0024095241734881367,4.831951199157913e-07,2.6168603520226874e-07
57267356.283604,1.8425379820640986,-0.002409567474980198,6.67033993151378e-07,2.7896382761866817e-07
57267416.184707,1.8425379467104892,-0.002409554502179575,6.737537554535322e-07,3.51110233590482e-07
57267477.183129,1.8425380574631534,-0.0024098666873287058,8.470326327003619e-07,9.87600296807091e-08
57267598.678789,1.8425376841537384,-0.0024097997797742163,6.573262230080701e-07,2.8355080513263464e-07
57267659.478459,1.8425376094716421,-0.0024097396426618492,7.039897886862434e-07,4.020203421680954e-07
57267732.685183,1.8425374475452125,-0.0024099771263126437,7.141931153142878e-07,2.3417780136347419e-07
57267804.578617,1.8425370890715829,-0.002410037834835394,5.523780803873279e-07,2.4121898712335665e-07
57267865.585689,1.8425370697011003,-0.0024098712114557536,7.213081132384502e-07,4.648267957168932e-07
57267926.281679,1.842536946789695,-0.0024102696181678355,8.052135662683924e-07,1.2264636526553366e-07
57267986.182782,1.8425367028189101,-0.0024100924991836523,7.843602383150738e-07,3.547923432991977e-07
57268065.886796,1.8425360731888534,-0.0024098586934955843,4.808221738539231e-07,6.61093945527897e-07
57268126.582785,1.8425358143599984,-0.002409437310042323,4.926380492431548e-07,1.1371235801469967e-06
57268194.078456,1.8425354767237474,-0.002410026625578791,4.785704930121426e-07,6.079992343772239e-07
