Seconds since J2000,RA ECLIPJ2000 [rad],DEC ECLIPJ2000 [rad],O-C RA ECLIPJ2000 [rad],O-C DEC ECLIPJ2000 [rad]
-145535889.217463,-1.8893508196430053,0.014290943409468085,-2.923000999022207e-07,-8.537996087215616e-07
-145535616.815521,-1.8893654406532143,0.014290565946946143,2.8183120415192775e-07,-5.940836906529606e-07
-145535542.813951,-1.889370027462696,0.014290272548402967,-2.0795564403819355e-07,-7.128281670643749e-07
-145535463.818403,-1.889374757283734,0.014290430946182226,-5.791644455133138e-07,-3.6727701123104306e-07
-145535255.819048,-1.8893858341097485,0.01428951524723654,-2.544004242821529e-07,-7.86759065118936e-07
-145534910.616495,-1.8894040211183025,0.014287913983833962,2.3449495123450959e-07,-1.554004003850168e-06
-145534840.718906,-1.8894088073748607,0.014289097426671617,-8.087104947929191e-07,-2.0016992085918062e-07
-145534746.413282,-1.8894134364912276,0.014288307553597846,-4.0870532247438973e-07,-7.593753405411158e-07
-145534667.815197,-1.8894174956545766,0.014287952730743686,-2.9500323983633336e-07,-9.212832779940255e-07
-145534604.613608,-1.889420773302341,0.014287933841750422,-2.295900964899289e-07,-7.846162465297013e-07
-145534479.41139,-1.8894273301847875,0.014287857188601706,-1.9682064777981623e-07,-5.520057321222599e-07
-145534332.617779,-1.8894351760796504,0.014287306089916353,-3.731486821756391e-07,-7.386904788946741e-07
-145534268.716335,-1.8894385875674813,0.014287266170034448,-4.652475271704759e-07,-6.193823322599157e-07
-145534200.512159,-1.8894419066070733,0.014287806706606407,-2.5443047380058204e-07,9.148981179075977e-08
-145534138.114107,-1.8894451224939435,0.01429061938175187,-2.528286364711363e-07,3.060342428876095e-06
-145534061.010723,-1.889449339284534,0.014288345069693377,-5.096561364048569e-07,9.794562297119058e-07
-145533985.013308,-1.8894531508288896,0.014286510972673697,-4.352481755010018e-07,-6.635221594906981e-07
-145533841.615212,-1.8894603296187018,0.01428582728234026,-3.2871082544794206e-07,-9.853717679898788e-07
-145533755.318879,-1.8894644539480459,0.014285448905079568,-9.867917150074845e-08,-1.1452512692407962e-06
-145533693.612032,-1.8894679746197875,0.014285559555103154,-5.196469343715648e-07,-8.780318795156838e-07
-145533634.514424,-1.8894708980694168,0.014285346758210582,-4.854111825824958e-07,-9.406277318158018e-07
-145533570.414269,-1.8894741688874812,0.014285074817870351,-5.603609407600629e-07,-1.0493802698862548e-06
-145533494.010741,-1.8894778549129558,0.014284234104081812,-4.537656759229236e-07,-1.6952232220687757e-06
-145533410.418718,-1.8894820629947655,0.014285133469369538,-5.332948134206816e-07,-5.822163283812631e-07
-145533359.511852,-1.8894844818751686,0.014284220727878076,-4.4868729442981703e-07,-1.3646349493485338e-06
-145533298.617151,-1.8894873782095245,0.014284515465125313,-3.611217707089054e-07,-9.137960278581686e-07
-145533214.117952,-1.8894917716753534,0.014284409390399117,-6.335859206174632e-07,-8.028920637052905e-07
-145533069.613928,-1.8894986086189018,0.01428417975968328,-4.761795273644509e-07,-6.605153222583732e-07
-145532961.216487,-1.8895040864058892,0.014283905207430572,-7.516394056050757e-07,-6.552688345679014e-07
-145532657.710589,-1.8895183153460389,0.014282698220087393,-6.19776431287633e-07,-1.075762045704004e-06
-145532591.71827,-1.889521404538357,0.014283004050866169,-6.270015970866183e-07,-5.983739405825833e-07
-145532464.615197,-1.8895268301178405,0.01428214063316276,-1.5794174768046787e-07,-1.1308717842543892e-06
-145532388.514102,-1.889530798836137,0.014282684298471302,-6.235309810698197e-07,-3.8877970580906973e-07
-145532317.614265,-1.8895337496390396,0.014281358677361928,-3.2840248431753594e-07,-1.5293511142870642e-06
-145532250.516017,-1.889536778016533,0.014281720157212708,-3.007571625079919e-07,-9.92588655523638e-07
-145532102.314085,-1.8895436677216144,0.01428177974016599,-4.955491406111179e-07,-5.45360746328008e-07
-145531940.815222,-1.8895514620178309,0.014283274295727174,-1.0811960942103127e-06,1.3723067767666686e-06
-145531840.513453,-1.8895551274706128,0.014281219069354588,-3.1562532143425415e-07,-4.198268195882565e-07
-145531762.615223,-1.889557969983842,0.014279749538379325,2.586613718769115e-07,-1.6848866321826639e-06
-145531706.014565,-1.889560231239224,0.014279339400349403,4.6654386864908304e-07,-1.9463860890991252e-06
-145531622.811395,-1.889564479831583,0.014279830041606706,-1.7312159239502023e-07,-1.23714968314724e-06
-145531330.21777,-1.8895774912227954,0.014277451120413504,-6.906859228994477e-07,-2.8466661466438475e-06
-145531238.815208,-1.8895814309371313,0.01427843745208572,-7.910180368497777e-07,-1.6198369580822797e-06
-145531172.010742,-1.8895840002923208,0.014279498334121293,-5.735177051047202e-07,-3.831577181593465e-07
-145530877.913766,-1.8895959251997152,0.014278637364182932,-4.247299285609074e-07,-4.7020457334505383e-07
-145530796.213947,-1.8895989553288561,0.014277848379500165,-1.5760351979032805e-07,-1.0442558421568798e-06
-145530716.311222,-1.8896015300905964,0.014277330783731822,4.6831111655265545e-07,-1.3516986421390625e-06
-145530485.813297,-1.8896110546071068,0.014276001974261706,4.288523158813007e-08,-2.0746928238758733e-06
-138887751.812732,-1.9963960781795644,0.01032543186484761,1.3380417718256155e-06,-4.834655346862282e-07
-138887629.815929,-1.996397784998366,0.010325157624666154,1.0221428301537827e-06,-5.55222289672086e-07
-138887171.818171,-1.9964022469588094,0.01032513877783877,1.3419729247843293e-06,1.8921852270453732e-07
-138886550.8182,-1.9964078119168178,0.010323630087603492,1.1280996083939954e-06,-2.7816190929959295e-07
-138885954.813708,-1.9964115105156093,0.010323361719576405,1.3086137806705977e-06,4.574180037276998e-07
-138885851.816279,-1.9964126852332011,0.010322390457922517,6.774338554560444e-07,-3.4008198510418475e-07
-138885653.81337,-1.9964137219197529,0.010322467133222735,5.796233688570851e-07,7.074900179072918e-08
-138885379.813085,-1.996414220894592,0.010321543950621013,1.1485241737663188e-06,-3.8991953510598976e-07
-138885266.81913,-1.9964148198894547,0.010321646949032525,9.112687051615609e-07,-9.620251335655527e-08
-138885147.820419,-1.9964149456353062,0.010321460542184862,1.116631858533168e-06,-8.179319887537118e-08
-138885012.820427,-1.9964147744460095,0.01032139207767819,1.6013576535911511e-06,7.748969139444173e-08
-138884879.81628,-1.996415583497989,0.010321044946250269,1.0364787161876166e-06,-4.536321765967466e-08
-138884744.816248,-1.9964154135994765,0.010320867418249054,1.3883405585168873e-06,4.620661128024173e-09
-138884518.819807,-1.9964158658670825,0.010320263796197306,1.0919797874819892e-06,-2.1852873634958803e-07
-138884276.813395,-1.9964155275217044,0.01031964550837629,1.3899471915657102e-06,-4.300568954129086e-07
-138884133.812763,-1.9964151448381675,0.010320174182599728,1.6477360871292035e-06,3.3857810194382054e-07
-138883897.819796,-1.9964150184314449,0.010319271388235355,1.4035871873652184e-06,-1.6895944781811223e-07
-138883767.813702,-1.9964142939423495,0.010318929759941243,1.836356376072601e-06,-2.932920209579304e-07
-138883622.817224,-1.9964140425646328,0.010319070605158482,1.688920631792712e-06,8.948851184034656e-08
-138883489.813077,-1.9964143188773404,0.010318371790747186,9.786378019072117e-07,-3.8781631056181154e-07
-138883357.819788,-1.9964132427244146,0.010318383900203577,1.5596484772562036e-06,-1.5630286319574804e-07
-138883225.817849,-1.9964136378274655,0.010318196255932647,6.051450018862425e-07,-1.2497694525624714e-07
-138882051.814681,-1.99640503696406,0.010316401570649758,1.4124632452539032e-06,3.726465946582436e-09
-138881866.815001,-1.9964034531948205,0.010316086567685408,1.3084457588519172e-06,-1.287654010501127e-08
-138881712.815635,-1.9964019943508935,0.010315347939002427,1.2676440683812018e-06,-5.042349723663464e-07
-138881562.816569,-1.996401518821486,0.010317604456191542,2.000725631834399e-07,1.9921022701204633e-06
-138881276.815304,-1.996397700201445,0.010315997751079997,8.521873726685669e-07,8.397103307689058e-07
-138880755.81467,-1.9963907665445957,0.01031417172901685,1.2679176213392651e-06,-1.6940002232207485e-07
-138880648.8169,-1.9963898956822788,0.010313978318564499,6.815421400574451e-07,-1.9686520537007257e-07
-138880538.821077,-1.9963888966440466,0.010313880149216359,1.407261069896748e-07,-1.2511958941141543e-07
-138880421.818171,-1.9963868355361538,0.010314221976072405,5.175865103179689e-07,3.966735727146953e-07
-138880285.815932,-1.9963871785090743,0.010317773998425839,-1.842823741826649e-06,4.156862153071109e-06
-105971702.819815,-1.4296389581625757,-0.002936720543813256,1.7385729360608337e-06,-3.963289791153804e-07
-105971626.81371,-1.4296410045277084,-0.0029344151831991383,2.347089949283898e-06,1.8707681486230046e-06
-105971481.817232,-1.4296452508074964,-0.002934508973552973,3.203056621270406e-06,1.70592938252348e-06
-105971415.116447,-1.4296495735823214,-0.0029359649074428775,1.2437261183162462e-06,2.181757002626787e-07
-105971335.714826,-1.429654890351187,-0.0029361735430689486,-1.2463305012477832e-06,-2.7624340243233292e-08
-105971193.915153,-1.4296522546517967,-0.0029432860764155937,6.472754603858988e-06,-7.204583845740655e-06
-105971077.819464,-1.429664239040626,-0.002937675710864487,-1.3165730359254724e-06,-1.6450964436609886e-06
-105970983.816272,-1.429669757212524,-0.0029318720245385837,-3.4165052016366104e-06,4.118636137263095e-06
-105970747.814655,-1.4296766404900207,-0.0029338560400306558,-1.6352638652072926e-06,2.0392589704120757e-06
-105970677.813385,-1.4296813067247873,-0.0029341457415180535,-3.7091917075571246e-06,1.7226428844644218e-06
-105887118.818253,-1.4307302520192937,-0.0029843790455037662,1.668246320640776e-06,2.2337344151961147e-06
-105887033.81791,-1.4307315375439245,-0.0029883752147946167,-5.441797992222774e-07,-1.6298527661410753e-06
-105886864.81951,-1.4307228692265423,-0.002987702829192515,6.209719193295271e-06,-6.965263679575839e-07
-105886752.819192,-1.4307266555664515,-0.0029880489058403195,1.1025674169218291e-06,-8.716484288309734e-07
-105886683.82017,-1.4307255244121109,-0.0029857171162941767,1.399508673394223e-06,1.5646636776964727e-06
-105886613.81886,-1.4307237271097026,-0.0029861878958376753,2.334584001673079e-06,1.1992989997012052e-06
-105886542.815343,-1.430726627716038,-0.0029884721842212358,-1.456875353245124e-06,-9.787144743199881e-07
-105886473.81632,-1.4307219391096153,-0.002986150067308924,2.3503914021727468e-06,1.4460458946149307e-06
-105886389.714544,-1.430721578043555,-0.0029855997926405854,1.6164706300170195e-06,2.120582776361443e-06
-105886314.719336,-1.4307209018303544,-0.0029884568854816823,1.2971481475609892e-06,-6.264954093499267e-07
-105886264.616007,-1.4307182637443643,-0.00298785568280469,3.260137679372832e-06,4.778730011223767e-08
-105885875.815983,-1.4307167552373115,-0.0029828292580234444,-7.387345044573834e-07,5.629691418108148e-06
-105885803.818868,-1.4307153722759942,-0.0029870464174068722,-4.271776961051188e-07,1.5130969808286113e-06
-105884970.819202,-1.430705279690304,-0.002988144358675655,-3.861510123215339e-06,1.5243377427132804e-06
-111396352.11609,-1.3178133877958669,-0.0006001033695427012,-3.8059778513233056e-06,1.6847688859831546e-07
-111396247.312917,-1.3178180834936541,-0.0006001505996946728,-4.855891243549237e-06,8.552080019532445e-08
-111396148.013395,-1.317820072359635,-0.0005993851335910222,-3.351886194824516e-06,8.174373063013756e-07
-111396097.313851,-1.3178218821646108,-0.0005996436861313559,-3.363904625741654e-06,5.418706451887096e-07
-111396031.718995,-1.3178240332379423,-0.000599315605366555,-3.174572573039214e-06,8.48056617788165e-07
-111395956.015322,-1.3178267473969982,-0.0005994496710738473,-3.1674442277918047e-06,6.888902369561918e-07
-111395895.11193,-1.317829179175497,-0.0005994071323696927,-3.3942763157934763e-06,7.113687660341211e-07
-111395805.618833,-1.3178341401106444,-0.0006001570973122207,-5.0899040000551565e-06,-6.785338981256297e-08
-111395694.914505,-1.3178399676580541,-0.000602051675285306,-6.836683092981133e-06,-1.9982531932887264e-06
-111395623.012421,-1.3178398039872676,-0.0005999217811951962,-3.998041356645388e-06,1.0859869312043573e-07
-111395509.517401,-1.317846820050984,-0.000602817781071762,-6.752591171332867e-06,-2.8234051570256557e-06
-111395421.216573,-1.3178491190598423,-0.0006033553576172261,-5.703029072767762e-06,-3.3886756414095755e-06
-111394969.716105,-1.3178631496958308,-0.0005984375952983508,-2.1636177240935694e-06,1.3920401329085147e-06
-111394851.51228,-1.317873070000092,-0.0006013540074358524,-7.3613789948190345e-06,-1.558933006875346e-06
-111138085.115214,-1.3248588870569005,-0.000731775933856491,-2.90107952372054e-06,-3.5848909118539997e-06
-111137727.712968,-1.32486795151535,-0.0007312005745171923,-7.44525933127349e-07,-2.5549403954094278e-06
-111137572.313932,-1.3248761473208923,-0.0007353653546981405,-4.22837632307882e-06,-6.523215942015495e-06
-111137374.915847,-1.3248808669160537,-0.0007294742450023261,-3.1090497716323995e-06,-3.835854011867944e-07
-111137290.71908,-1.3248833423816273,-0.0007290934510345006,-3.1440127670201434e-06,1.0282121237856906e-07
-111137232.61507,-1.3248853979533075,-0.0007299738109492051,-3.532858133148409e-06,-7.047963364172983e-07
-111137168.117452,-1.3248862928308447,-0.0007292509350500162,-2.5943187971222414e-06,9.8688949270705e-08
-111137108.613771,-1.3248894740213506,-0.0007281443291463715,-4.099654850042711e-06,1.2795323410722372e-06
-111137051.71937,-1.3248889015317107,-0.0007293016628504721,-1.938812123514211e-06,1.9306162933455974e-07
-111136957.517467,-1.3248936131225413,-0.0007265285539362703,-4.050655713738749e-06,3.0832395604613906e-06
-111136890.013146,-1.3248924378281475,-0.0007293227148510168,-1.0355331165889936e-06,3.7276503908546983e-07
-111136817.013784,-1.3248943335619958,-0.0007304139848649577,-9.63417610799766e-07,-6.282023279396889e-07
-111136729.412811,-1.3249028268973246,-0.0007269203810174181,-7.125130355500886e-06,2.973492506871847e-06
-111136420.515552,-1.324911053622258,-0.0007305481903152791,-7.390131423479218e-06,-2.756529289451703e-07
-111136334.219219,-1.3249055765468811,-0.0007306700811784224,2.3876619525964315e-07,-2.924763266938437e-07
-111136275.812817,-1.3249216472138983,-0.0007250359894495886,-1.4393476794882787e-05,5.412541644796718e-06
-111136074.613144,-1.3249102475238108,-0.0007303232320103373,1.8503682976955815e-06,3.6845606326630156e-07
57264158.982459,1.8419608206136515,-0.00239284949205917,1.1157589794308365e-06,4.2827282001681177e-07
57264248.682958,1.841961869207447,-0.0023913861498586065,1.6176118651234361e-06,1.8071063944834383e-06
57264377.885516,1.8419625960850101,-0.002391817219341629,1.5062617024774738e-06,1.25644669772898e-06
57264550.685504,1.841963571423242,-0.0023921145296824592,1.2669343776305908e-06,8.031558450588214e-07
57264714.085181,1.8419647208019734,-0.0023916366112315623,1.1692110704064618e-06,1.1377829267412466e-06
57264775.679737,1.8419653133480554,-0.0023921349992935166,1.266808330679936e-06,5.864473437526552e-07
57264836.479448,1.8419660005579632,-0.002392224143404009,1.4521193048011583e-06,4.4561443490786015e-07
57264897.184087,1.8419665025756085,-0.002392408958396844,1.4398068357568405e-06,2.097633949064634e-07
57264957.880077,1.8419669620064387,-0.002391818297308535,1.3717820481762288e-06,7.499685722106922e-07
57265017.884861,1.8419673262795633,-0.002392157703209646,1.2016374892898085e-06,3.612458826687641e-07
57265078.684571,1.8419680703966828,-0.0023919205617131205,1.3911104455033296e-06,5.489912113716168e-07
57265139.380561,1.8419684198940418,-0.0023920742645329846,1.173716242863776e-06,3.4655418150670095e-07
57265200.983767,1.8419690250849192,-0.002392214896951517,1.190069474743538e-06,1.5705079059414803e-07
57265284.783112,1.8419699808340821,-0.0023917599281280707,1.3230416826548463e-06,5.464995231321997e-07
57265489.084558,1.8419721709260044,-0.002392026117924868,1.402145660911458e-06,1.252285417741722e-07
57265590.785998,1.841973106859654,-0.0023924505006763814,1.2317547040119337e-06,-3.738802508718858e-07
57265687.882313,1.8419741696043699,-0.0023912842067025856,1.2039225023574573e-06,7.226128576139253e-07
57265748.880695,1.841974990911313,-0.002391654046413272,1.3229622763955007e-06,3.096948853029309e-07
57265809.982798,1.8419760538994379,-0.0023915399928741803,1.6692444744226265e-06,3.811959401918419e-07
57265869.883901,1.8419761369435204,-0.002390913931183931,1.0368148342099204e-06,9.661246616323935e-07
57265931.184715,1.8419772798341942,-0.0023913718931098146,1.4343496355095908e-06,4.6666748873243694e-07
57265991.984385,1.8419776719864482,-0.002391193153738598,1.074100575815251e-06,6.04850352685371e-07
57266052.08424,1.8419785933082578,-0.002390674822471739,1.2388357504278247e-06,1.083679783075997e-06
57266255.884543,1.8419813031131573,-0.0023909866170036993,1.2881518496321576e-06,6.422984484937e-07
57266500.586616,1.8419845403628694,-0.00239071058994877,1.1380454205678348e-06,7.716800896110342e-07
57266560.58279,1.841985306391736,-0.0023903122792372535,1.0415519291484543e-06,1.1355333278083302e-06
57266620.682645,1.841986250045174,-0.00239056981902407,1.1085927138498874e-06,8.440693644129298e-07
57266680.678779,1.841987419370555,-0.002391138916770366,1.390260124134457e-06,2.416986239791967e-07
57266740.778634,1.8419881217634464,-0.002390950535813506,1.1909009844934815e-06,3.9734351786743435e-07
57266800.783418,1.8419892274436902,-0.0023910877577319033,1.383736074611619e-06,2.280316454428971e-07
57266861.583129,1.8419898653523907,-0.0023904602776010763,1.0839691255704054e-06,8.236031720666032e-07
57266922.58151,1.8419901341176241,-0.00239067654357394,3.991335859598877e-07,5.759385346454544e-07
57267044.284572,1.8419918646090556,-0.002392990278855366,1.8861830697325388e-07,-1.7986017915574623e-06
57267112.981202,1.8419941041741161,-0.0023908826123139088,1.3100336173632599e-06,2.7582736505547475e-07
57267173.685841,1.8419947206513556,-0.0023901287679178227,9.249515409148756e-07,1.0009535095869583e-06
57267234.485511,1.8419959911871338,-0.002390986767357715,1.1796983463430166e-06,1.1480503414769416e-07
57267295.380212,1.8419967758811606,-0.002391741051737187,9.343408526873986e-07,-6.670556865350126e-07
57267356.283604,1.8419978803001218,-0.0023909340080448625,9.95900984124276e-07,1.1302560569935449e-07
57267416.184707,1.8419990451781443,-0.0023906480364362316,1.1227591028006856e-06,3.730818167245291e-07
57267477.183129,1.8419999401476725,-0.0023911860011262705,9.481623837181985e-07,-1.906576791595692e-07
57267598.678789,1.8420029548528032,-0.002389400314297541,1.7949632609148836e-06,1.5455432672891595e-06
57267659.478459,1.842003484156298,-0.0023904619395311638,1.220673501611813e-06,4.60080645602913e-07
57267732.685183,1.8420048016031898,-0.0023905575006705794,1.1928135099648074e-06,3.366387440438545e-07
57267804.578617,1.8420062772443146,-0.0023906747269879965,1.329776014191708e-06,1.929054553422016e-07
57267865.585689,1.842007429731368,-0.0023909236455863466,1.3327253143291529e-06,-7.782688204527669e-08
57267926.281679,1.8420085312726153,-0.002389916823251923,1.278264565307552e-06,9.079123260225322e-07
57267986.182782,1.8420096560900905,-0.0023903939500087954,1.2501975092948925e-06,4.10584561838772e-07
57268065.886796,1.8420117233512552,-0.0023903014741194985,1.7649763659477458e-06,4.771150251057892e-07
57268126.582785,1.8420125306148327,-0.0023888002199022535,1.3759021249004633e-06,1.9593268946521344e-06
57268194.078456,1.84201313290708,-0.0023886825025918497,6.33567379892952e-07,2.05659537864597e-06
57268254.281992,1.8420149258472833,-0.002389492565395116,1.214515150893547e-06,1.228939007443669e-06
57268328.681025,1.842015820714708,-0.0023896796165350735,5.95205611020333e-07,1.0209875986374323e-06
57268389.679447,1.84201726070235,-0.0023896062346628675,7.802599395478893e-07,1.077928061054157e-06
